0 2081
1 2084
2 2085
3 2086
4 2089
5 2096
6 2107
7 2125
8 2146
9 2176
10 2213
11 2253
12 2301
13 2345
14 2376
15 2398
16 2412
17 2414
18 2404
19 2379
20 2347
21 2314
22 2282
23 2253
24 2227
25 2189
26 2140
27 2105
28 2076
29 2050
30 2024
31 2002
32 1993
33 1984
34 1970
35 1965
36 1956
37 1948
38 1950
39 1946
40 1949
41 1947
42 1932
43 1922
44 1911
45 1895
46 1892
47 1899
48 1907
49 1918
50 1929
51 1941
52 1961
53 1978
54 1987
55 2004
56 2012
57 2012
58 2008
59 2004
60 1990
61 1972
62 1955
63 1940
64 1932
65 1922
66 1915
67 1904
68 1896
69 1898
70 1902
71 1918
72 1942
73 1965
74 1990
75 2005
76 2004
77 2007
78 2009
79 2002
80 1991
81 1979
82 1962
83 1942
84 1920
85 1903
86 1898
87 1898
88 1902
89 1912
90 1919
91 1923
92 1938
93 1958
94 1978
95 1995
96 2010
97 2016
98 2016
99 2005
100 1992
101 1977
102 1958
103 1942
104 1926
105 1910
106 1903
107 1897
108 1893
109 1899
110 1914
111 1931
112 1950
113 1968
114 1988
115 2003
116 2005
117 2000
118 1994
119 1993
120 1992
121 1983
122 1965
123 1953
124 1940
125 1924
126 1911
127 1900
128 1897
129 1908
130 1923
131 1939
132 1953
133 1967
134 1989
135 2007
136 2014
137 2017
138 2018
139 2011
140 1997
141 1977
142 1961
143 1949
144 1930
145 1912
146 1903
147 1905
148 1913
149 1923
150 1936
151 1948
152 1961
153 1978
154 1997
155 2013
156 2024
157 2032
158 2033
159 2030
160 2013
161 1993
162 1964
163 1940
164 1922
165 1916
166 1916
167 1922
168 1923
169 1926
170 1937
171 1949
172 1964
173 1982
174 2007
175 2023
176 2033
177 2042
178 2039
179 2033
180 2025
181 2001
182 1975
183 1956
184 1945
185 1942
186 1934
187 1929
188 1931
189 1939
190 1946
191 1955
192 1973
193 2001
194 2022
195 2037
196 2049
197 2053
198 2051
199 2046
200 2032
201 2015
202 1997
203 1981
204 1963
205 1947
206 1940
207 1939
208 1942
209 1951
210 1963
211 1978
212 1998
213 2013
214 2030
215 2049
216 2063
217 2069
218 2070
219 2062
220 2051
221 2036
222 2014
223 1995
224 1984
225 1970
226 1959
227 1954
228 1953
229 1961
230 1974
231 1987
232 2007
233 2025
234 2036
235 2048
236 2063
237 2070
238 2063
239 2053
240 2039
241 2019
242 2005
243 1989
244 1966
245 1943
246 1939
247 1932
248 1936
249 1953
250 1958
251 1967
252 1995
253 2023
254 2041
255 2051
256 2054
257 2055
258 2056
259 2043
260 2024
261 2005
262 1977
263 1962
264 1945
265 1929
266 1919
267 1922
268 1928
269 1935
270 1948
271 1958
272 1973
273 1989
274 2005
275 2014
276 2024
277 2030
278 2029
279 2020
280 2005
281 1985
282 1963
283 1943
284 1927
285 1915
286 1903
287 1899
288 1898
289 1908
290 1923
291 1933
292 1946
293 1960
294 1981
295 1996
296 2010
297 2014
298 2015
299 2007
300 1995
301 1977
302 1958
303 1941
304 1927
305 1910
306 1897
307 1893
308 1893
309 1901
310 1916
311 1932
312 1950
313 1968
314 1986
315 1998
316 2006
317 2005
318 2004
319 2001
320 1989
321 1975
322 1959
323 1943
324 1924
325 1907
326 1894
327 1890
328 1889
329 1903
330 1913
331 1926
332 1946
333 1966
334 1983
335 1998
336 2008
337 2013
338 2010
339 2005
340 1992
341 1970
342 1948
343 1934
344 1926
345 1916
346 1901
347 1890
348 1885
349 1898
350 1920
351 1929
352 1948
353 1963
354 1973
355 1989
356 2006
357 2012
358 2017
359 2012
360 2001
361 1984
362 1964
363 1940
364 1919
365 1905
366 1893
367 1891
368 1894
369 1906
370 1924
371 1942
372 1959
373 1974
374 1990
375 2003
376 2013
377 2018
378 2015
379 2006
380 1994
381 1978
382 1957
383 1939
384 1925
385 1907
386 1896
387 1890
388 1892
389 1903
390 1916
391 1930
392 1950
393 1972
394 1987
395 2000
396 2007
397 2014
398 2015
399 2007
400 1988
401 1966
402 1950
403 1938
404 1928
405 1914
406 1902
407 1898
408 1898
409 1903
410 1916
411 1934
412 1957
413 1970
414 1986
415 2003
416 2016
417 2023
418 2015
419 2002
420 1986
421 1971
422 1959
423 1945
424 1933
425 1917
426 1906
427 1904
428 1902
429 1907
430 1918
431 1930
432 1953
433 1972
434 1987
435 2003
436 2018
437 2023
438 2015
439 2003
440 1989
441 1975
442 1963
443 1945
444 1929
445 1917
446 1908
447 1911
448 1909
449 1911
450 1928
451 1949
452 1961
453 1973
454 1982
455 2000
456 2010
457 2013
458 2021
459 2013
460 2002
461 1991
462 1972
463 1957
464 1944
465 1928
466 1915
467 1910
468 1906
469 1913
470 1922
471 1932
472 1953
473 1972
474 1990
475 2006
476 2014
477 2018
478 2023
479 2020
480 2008
481 1991
482 1969
483 1950
484 1938
485 1925
486 1913
487 1908
488 1903
489 1902
490 1913
491 1935
492 1961
493 1982
494 1993
495 2005
496 2018
497 2023
498 2020
499 2014
500 2007
501 1988
502 1965
503 1946
504 1930
505 1916
506 1906
507 1902
508 1903
509 1905
510 1918
511 1938
512 1960
513 1981
514 2000
515 2005
516 2008
517 2013
518 2013
519 2004
520 1999
521 1984
522 1967
523 1951
524 1934
525 1918
526 1913
527 1902
528 1901
529 1908
530 1913
531 1927
532 1946
533 1970
534 1984
535 2002
536 2019
537 2026
538 2030
539 2025
540 2008
541 1991
542 1970
543 1954
544 1938
545 1921
546 1912
547 1905
548 1904
549 1915
550 1927
551 1934
552 1959
553 1985
554 1997
555 2003
556 2011
557 2016
558 2016
559 2012
560 2002
561 1987
562 1971
563 1952
564 1933
565 1921
566 1914
567 1912
568 1911
569 1916
570 1928
571 1942
572 1960
573 1977
574 1994
575 2009
576 2017
577 2016
578 2014
579 2010
580 2005
581 1988
582 1962
583 1943
584 1928
585 1915
586 1906
587 1903
588 1905
589 1917
590 1930
591 1945
592 1963
593 1979
594 1997
595 2011
596 2016
597 2017
598 2022
599 2019
600 2007
601 1987
602 1965
603 1947
604 1929
605 1914
606 1906
607 1901
608 1900
609 1904
610 1912
611 1922
612 1947
613 1969
614 1991
615 2008
616 2016
617 2021
618 2020
619 2011
620 2000
621 1985
622 1969
623 1950
624 1933
625 1917
626 1913
627 1909
628 1909
629 1917
630 1928
631 1943
632 1972
633 1990
634 1996
635 2007
636 2019
637 2016
638 2016
639 2019
640 2009
641 1995
642 1979
643 1963
644 1943
645 1923
646 1910
647 1905
648 1898
649 1907
650 1919
651 1937
652 1957
653 1969
654 1985
655 2001
656 2016
657 2024
658 2023
659 2012
660 2002
661 1988
662 1967
663 1948
664 1929
665 1914
666 1905
667 1905
668 1905
669 1908
670 1921
671 1937
672 1955
673 1970
674 1992
675 2007
676 2013
677 2019
678 2024
679 2014
680 2001
681 1987
682 1967
683 1947
684 1929
685 1918
686 1910
687 1901
688 1901
689 1907
690 1918
691 1934
692 1953
693 1974
694 1993
695 2005
696 2010
697 2013
698 2011
699 2006
700 1997
701 1984
702 1965
703 1942
704 1926
705 1910
706 1899
707 1906
708 1907
709 1905
710 1913
711 1935
712 1956
713 1972
714 1993
715 2011
716 2025
717 2027
718 2029
719 2019
720 1997
721 1984
722 1972
723 1951
724 1923
725 1904
726 1900
727 1908
728 1923
729 1936
730 1950
731 1960
732 1975
733 1996
734 2014
735 2029
736 2040
737 2043
738 2036
739 2028
740 2012
741 1998
742 1984
743 1966
744 1951
745 1943
746 1937
747 1933
748 1932
749 1937
750 1947
751 1959
752 1977
753 1995
754 2014
755 2029
756 2045
757 2055
758 2054
759 2047
760 2031
761 2015
762 1992
763 1971
764 1955
765 1939
766 1927
767 1922
768 1919
769 1922
770 1933
771 1946
772 1963
773 1979
774 1997
775 2014
776 2022
777 2026
778 2027
779 2017
780 2002
781 1988
782 1971
783 1955
784 1939
785 1922
786 1912
787 1906
788 1906
789 1916
790 1923
791 1935
792 1957
793 1974
794 1988
795 2005
796 2015
797 2016
798 2016
799 2013
800 2000
801 1977
802 1943
803 1926
804 1915
805 1910
806 1910
807 1909
808 1903
809 1901
810 1908
811 1923
812 1949
813 1974
814 1991
815 1996
816 1994
817 1997
818 1997
819 1994
820 1998
821 1988
822 1964
823 1940
824 1920
825 1905
826 1896
827 1891
828 1895
829 1905
830 1907
831 1916
832 1942
833 1966
834 1986
835 1998
836 2004
837 2009
838 2007
839 2004
840 2000
841 1989
842 1971
843 1957
844 1952
845 1948
846 1949
847 1956
848 1966
849 1982
850 2009
851 2045
852 2087
853 2126
854 2164
855 2200
856 2234
857 2260
858 2283
859 2300
860 2314
861 2326
862 2326
863 2325
864 2319
865 2310
866 2298
867 2285
868 2270
869 2260
870 2252
871 2251
872 2261
873 2269
874 2264
875 2247
876 2224
877 2197
878 2166
879 2123
880 2070
881 2020
882 1977
883 1930
884 1893
885 1868
886 1854
887 1847
888 1846
889 1851
890 1865
891 1894
892 1926
893 1958
894 1978
895 1994
896 2012
897 2021
898 2021
899 2011
900 1998
901 1989
902 1967
903 1944
904 1923
905 1908
906 1902
907 1896
908 1900
909 1920
910 1939
911 1947
912 1951
913 1966
914 1980
915 2000
916 2013
917 2008
918 2004
919 1999
920 1991
921 1988
922 1971
923 1950
924 1926
925 1906
926 1899
927 1897
928 1896
929 1900
930 1912
931 1929
932 1950
933 1967
934 1983
935 2001
936 2014
937 2014
938 2010
939 1999
940 1988
941 1976
942 1962
943 1945
944 1924
945 1908
946 1899
947 1896
948 1900
949 1908
950 1922
951 1935
952 1951
953 1971
954 1991
955 2004
956 2013
957 2019
958 2015
959 2007
960 1995
961 1982
962 1963
963 1945
964 1925
965 1907
966 1897
967 1895
968 1897
969 1907
970 1918
971 1928
972 1946
973 1967
974 1987
975 2001
976 2006
977 2009
978 2011
979 2005
980 1991
981 1975
982 1961
983 1948
984 1929
985 1913
986 1898
987 1890
988 1898
989 1911
990 1922
991 1939
992 1964
993 1984
994 2003
995 2009
996 2021
997 2027
998 2023
999 2009
1000 1993
1001 1986
1002 1968
1003 1955
1004 1946
1005 1934
1006 1921
1007 1910
1008 1906
1009 1915
1010 1932
1011 1945
1012 1963
1013 1982
1014 1998
1015 2018
1016 2032
1017 2028
1018 2021
1019 2013
1020 2009
1021 2000
1022 1981
1023 1965
1024 1951
1025 1937
1026 1928
1027 1923
1028 1920
1029 1927
1030 1941
1031 1953
1032 1970
1033 1990
1034 2006
1035 2019
1036 2032
1037 2041
1038 2042
1039 2033
1040 2027
1041 2015
1042 1990
1043 1970
1044 1959
1045 1947
1046 1939
1047 1935
1048 1934
1049 1940
1050 1951
1051 1966
1052 1985
1053 2002
1054 2019
1055 2034
1056 2048
1057 2056
1058 2054
1059 2048
1060 2038
1061 2022
1062 2002
1063 1983
1064 1966
1065 1949
1066 1939
1067 1938
1068 1941
1069 1945
1070 1956
1071 1971
1072 1989
1073 2013
1074 2035
1075 2046
1076 2058
1077 2062
1078 2060
1079 2052
1080 2048
1081 2034
1082 2009
1083 1984
1084 1969
1085 1954
1086 1941
1087 1937
1088 1936
1089 1947
1090 1957
1091 1971
1092 1994
1093 2020
1094 2040
1095 2036
1096 2037
1097 2045
1098 2053
1099 2056
1100 2050
1101 2038
1102 2009
1103 1981
1104 1963
1105 1953
1106 1943
1107 1932
1108 1929
1109 1934
1110 1943
1111 1959
1112 1977
1113 1991
1114 2010
1115 2023
1116 2027
1117 2023
1118 2019
1119 2017
1120 2012
1121 1997
1122 1974
1123 1952
1124 1935
1125 1919
1126 1909
1127 1906
1128 1908
1129 1911
1130 1921
1131 1936
1132 1956
1133 1973
1134 1991
1135 2007
1136 2015
1137 2019
1138 2018
1139 2010
1140 1995
1141 1978
1142 1954
1143 1937
1144 1928
1145 1914
1146 1908
1147 1907
1148 1903
1149 1907
1150 1917
1151 1929
1152 1948
1153 1968
1154 1981
1155 1998
1156 2010
1157 2013
1158 2012
1159 2004
1160 1992
1161 1972
1162 1946
1163 1931
1164 1923
1165 1915
1166 1907
1167 1900
1168 1894
1169 1899
1170 1908
1171 1926
1172 1951
1173 1968
1174 1982
1175 1993
1176 2003
1177 2007
1178 2003
1179 1998
1180 1991
1181 1982
1182 1965
1183 1946
1184 1927
1185 1912
1186 1905
1187 1895
1188 1887
1189 1891
1190 1903
1191 1917
1192 1939
1193 1965
1194 1981
1195 1987
1196 1996
1197 2003
1198 2003
1199 2003
1200 1990
1201 1973
1202 1950
1203 1926
1204 1909
1205 1900
1206 1884
1207 1879
1208 1888
1209 1894
1210 1909
1211 1919
1212 1934
1213 1963
1214 1985
1215 2002
1216 2013
1217 2015
1218 2011
1219 2002
1220 1991
1221 1976
1222 1959
1223 1943
1224 1925
1225 1905
1226 1891
1227 1886
1228 1888
1229 1899
1230 1914
1231 1929
1232 1942
1233 1961
1234 1980
1235 1993
1236 2002
1237 2007
1238 2006
1239 2002
1240 1993
1241 1977
1242 1956
1243 1938
1244 1923
1245 1909
1246 1895
1247 1891
1248 1892
1249 1895
1250 1909
1251 1926
1252 1943
1253 1952
1254 1975
1255 1997
1256 2010
1257 2016
1258 2018
1259 2007
1260 1991
1261 1977
1262 1955
1263 1932
1264 1916
1265 1908
1266 1899
1267 1892
1268 1890
1269 1899
1270 1907
1271 1921
1272 1945
1273 1965
1274 1984
1275 1991
1276 2002
1277 2005
1278 2009
1279 2002
1280 1991
1281 1975
1282 1959
1283 1949
1284 1931
1285 1908
1286 1885
1287 1866
1288 1871
1289 1892
1290 1914
1291 1934
1292 1959
1293 1979
1294 1990
1295 2003
1296 2011
1297 2016
1298 2012
1299 2004
1300 1993
1301 1978
1302 1959
1303 1945
1304 1928
1305 1909
1306 1896
1307 1896
1308 1898
1309 1907
1310 1919
1311 1925
1312 1941
1313 1960
1314 1974
1315 1983
1316 1994
1317 2007
1318 2011
1319 2002
1320 1980
1321 1975
1322 1965
1323 1944
1324 1925
1325 1907
1326 1897
1327 1890
1328 1889
1329 1897
1330 1905
1331 1918
1332 1941
1333 1956
1334 1971
1335 1987
1336 2001
1337 2010
1338 2011
1339 2003
1340 1988
1341 1971
1342 1944
1343 1926
1344 1914
1345 1908
1346 1904
1347 1899
1348 1896
1349 1903
1350 1906
1351 1910
1352 1927
1353 1953
1354 1976
1355 1989
1356 2002
1357 2012
1358 2016
1359 2009
1360 1993
1361 1975
1362 1955
1363 1934
1364 1913
1365 1901
1366 1897
1367 1892
1368 1887
1369 1894
1370 1903
1371 1912
1372 1930
1373 1955
1374 1976
1375 1993
1376 1994
1377 1993
1378 1994
1379 1993
1380 1990
1381 1978
1382 1957
1383 1934
1384 1915
1385 1897
1386 1886
1387 1881
1388 1885
1389 1892
1390 1903
1391 1913
1392 1928
1393 1936
1394 1949
1395 1968
1396 1989
1397 2008
1398 2011
1399 2003
1400 1987
1401 1974
1402 1957
1403 1941
1404 1924
1405 1912
1406 1899
1407 1891
1408 1887
1409 1894
1410 1905
1411 1912
1412 1930
1413 1955
1414 1975
1415 1990
1416 2002
1417 1999
1418 1984
1419 1980
1420 1975
1421 1965
1422 1950
1423 1938
1424 1921
1425 1903
1426 1891
1427 1884
1428 1885
1429 1895
1430 1905
1431 1918
1432 1935
1433 1954
1434 1973
1435 1987
1436 1999
1437 2004
1438 2002
1439 1992
1440 1981
1441 1968
1442 1949
1443 1931
1444 1914
1445 1897
1446 1882
1447 1878
1448 1880
1449 1889
1450 1903
1451 1915
1452 1935
1453 1956
1454 1974
1455 1989
1456 1993
1457 1997
1458 2000
1459 1993
1460 1974
1461 1959
1462 1941
1463 1926
1464 1921
1465 1909
1466 1897
1467 1892
1468 1893
1469 1899
1470 1909
1471 1922
1472 1938
1473 1958
1474 1974
1475 1982
1476 1986
1477 1991
1478 1990
1479 1989
1480 1981
1481 1962
1482 1941
1483 1925
1484 1912
1485 1896
1486 1880
1487 1875
1488 1878
1489 1892
1490 1914
1491 1932
1492 1951
1493 1966
1494 1974
1495 1987
1496 1993
1497 1999
1498 1997
1499 1986
1500 1974
1501 1962
1502 1944
1503 1926
1504 1910
1505 1895
1506 1885
1507 1884
1508 1890
1509 1897
1510 1908
1511 1916
1512 1936
1513 1945
1514 1958
1515 1975
1516 1985
1517 1998
1518 2006
1519 1998
1520 1980
1521 1964
1522 1946
1523 1923
1524 1908
1525 1902
1526 1896
1527 1892
1528 1890
1529 1890
1530 1896
1531 1911
1532 1932
1533 1956
1534 1976
1535 1987
1536 1994
1537 2002
1538 2005
1539 2000
1540 1985
1541 1969
1542 1949
1543 1926
1544 1910
1545 1901
1546 1892
1547 1887
1548 1887
1549 1892
1550 1901
1551 1909
1552 1932
1553 1955
1554 1974
1555 1986
1556 1995
1557 1995
1558 1989
1559 1979
1560 1974
1561 1971
1562 1962
1563 1943
1564 1922
1565 1907
1566 1900
1567 1886
1568 1883
1569 1889
1570 1902
1571 1920
1572 1932
1573 1942
1574 1956
1575 1979
1576 2002
1577 2010
1578 2005
1579 1989
1580 1976
1581 1959
1582 1938
1583 1922
1584 1911
1585 1902
1586 1892
1587 1887
1588 1887
1589 1895
1590 1908
1591 1925
1592 1949
1593 1966
1594 1978
1595 1994
1596 2006
1597 2010
1598 2007
1599 2000
1600 1988
1601 1973
1602 1958
1603 1946
1604 1933
1605 1916
1606 1908
1607 1906
1608 1907
1609 1909
1610 1915
1611 1926
1612 1946
1613 1969
1614 1987
1615 2004
1616 2005
1617 1995
1618 1990
1619 1986
1620 1988
1621 1988
1622 1976
1623 1959
1624 1941
1625 1929
1626 1920
1627 1914
1628 1913
1629 1916
1630 1928
1631 1948
1632 1970
1633 1984
1634 1994
1635 2005
1636 2014
1637 2018
1638 2019
1639 2010
1640 1992
1641 1977
1642 1960
1643 1940
1644 1922
1645 1911
1646 1900
1647 1892
1648 1890
1649 1895
1650 1905
1651 1911
1652 1926
1653 1951
1654 1970
1655 1990
1656 2003
1657 2006
1658 2005
1659 1995
1660 1973
1661 1959
1662 1949
1663 1935
1664 1926
1665 1917
1666 1907
1667 1896
1668 1890
1669 1892
1670 1897
1671 1908
1672 1927
1673 1945
1674 1959
1675 1967
1676 1979
1677 1994
1678 1994
1679 1981
1680 1963
1681 1950
1682 1933
1683 1919
1684 1905
1685 1887
1686 1879
1687 1874
1688 1878
1689 1884
1690 1890
1691 1902
1692 1922
1693 1945
1694 1967
1695 1979
1696 1989
1697 1992
1698 1985
1699 1981
1700 1967
1701 1948
1702 1930
1703 1916
1704 1904
1705 1895
1706 1891
1707 1883
1708 1879
1709 1885
1710 1896
1711 1909
1712 1923
1713 1943
1714 1966
1715 1980
1716 1993
1717 2008
1718 2023
1719 2026
1720 2029
1721 2030
1722 2018
1723 2005
1724 1999
1725 2005
1726 2018
1727 2038
1728 2057
1729 2084
1730 2113
1731 2153
1732 2206
1733 2253
1734 2292
1735 2327
1736 2358
1737 2375
1738 2384
1739 2381
1740 2359
1741 2329
1742 2295
1743 2254
1744 2213
1745 2179
1746 2165
1747 2151
1748 2132
1749 2111
1750 2087
1751 2063
1752 2050
1753 2036
1754 2020
1755 2002
1756 1981
1757 1966
1758 1957
1759 1951
1760 1936
1761 1907
1762 1886
1763 1871
1764 1858
1765 1856
1766 1861
1767 1867
1768 1871
1769 1885
1770 1899
1771 1910
1772 1935
1773 1962
1774 1983
1775 1993
1776 2006
1777 2009
1778 2006
1779 1989
1780 1976
1781 1964
1782 1945
1783 1927
1784 1907
1785 1886
1786 1877
1787 1873
1788 1874
1789 1885
1790 1900
1791 1916
1792 1934
1793 1950
1794 1961
1795 1978
1796 1986
1797 1990
1798 1994
1799 1989
1800 1976
1801 1965
1802 1946
1803 1920
1804 1904
1805 1891
1806 1881
1807 1877
1808 1877
1809 1881
1810 1898
1811 1917
1812 1934
1813 1943
1814 1955
1815 1974
1816 1989
1817 1996
1818 2001
1819 1997
1820 1985
1821 1967
1822 1937
1823 1917
1824 1903
1825 1887
1826 1878
1827 1868
1828 1870
1829 1880
1830 1894
1831 1915
1832 1934
1833 1951
1834 1963
1835 1980
1836 1994
1837 1999
1838 1999
1839 1994
1840 1986
1841 1976
1842 1950
1843 1929
1844 1912
1845 1894
1846 1882
1847 1877
1848 1879
1849 1889
1850 1904
1851 1913
1852 1930
1853 1943
1854 1961
1855 1979
1856 1994
1857 1997
1858 1991
1859 1985
1860 1982
1861 1970
1862 1946
1863 1927
1864 1903
1865 1887
1866 1882
1867 1881
1868 1882
1869 1889
1870 1898
1871 1909
1872 1926
1873 1948
1874 1975
1875 1996
1876 2005
1877 2006
1878 2006
1879 2001
1880 1988
1881 1977
1882 1959
1883 1937
1884 1912
1885 1888
1886 1876
1887 1878
1888 1878
1889 1893
1890 1913
1891 1928
1892 1956
1893 1970
1894 1983
1895 1990
1896 2002
1897 2015
1898 2019
1899 2011
1900 1993
1901 1976
1902 1963
1903 1950
1904 1935
1905 1921
1906 1910
1907 1904
1908 1903
1909 1907
1910 1918
1911 1934
1912 1955
1913 1972
1914 1993
1915 2008
1916 2014
1917 2020
1918 2026
1919 2023
1920 2013
1921 1997
1922 1977
1923 1961
1924 1936
1925 1924
1926 1924
1927 1925
1928 1921
1929 1929
1930 1936
1931 1948
1932 1972
1933 1995
1934 2016
1935 2027
1936 2037
1937 2040
1938 2042
1939 2034
1940 2023
1941 2007
1942 1987
1943 1974
1944 1958
1945 1949
1946 1942
1947 1936
1948 1938
1949 1944
1950 1954
1951 1965
1952 1979
1953 1992
1954 2004
1955 2024
1956 2043
1957 2056
1958 2051
1959 2045
1960 2032
1961 2010
1962 1993
1963 1980
1964 1968
1965 1954
1966 1937
1967 1926
1968 1928
1969 1939
1970 1953
1971 1971
1972 1986
1973 2001
1974 2015
1975 2026
1976 2037
1977 2039
1978 2036
1979 2035
1980 2026
1981 2007
1982 1988
1983 1969
1984 1952
1985 1939
1986 1926
1987 1918
1988 1915
1989 1916
1990 1929
1991 1942
1992 1956
1993 1971
1994 1988
1995 2006
1996 2017
1997 2014
1998 2009
1999 2007
2000 2002
2001 1988
2002 1962
2003 1937
2004 1918
2005 1906
2006 1891
2007 1884
2008 1884
2009 1892
2010 1909
2011 1924
2012 1937
2013 1957
2014 1979
2015 1990
2016 1998
2017 2006
2018 2006
2019 1994
2020 1975
2021 1961
2022 1948
2023 1929
2024 1911
2025 1900
2026 1889
2027 1881
2028 1881
2029 1889
2030 1902
2031 1915
2032 1934
2033 1950
2034 1965
2035 1978
2036 1984
2037 1990
2038 1991
2039 1985
2040 1975
2041 1964
2042 1941
2043 1930
2044 1909
2045 1893
2046 1889
2047 1884
2048 1886
2049 1893
2050 1903
2051 1910
2052 1922
2053 1940
2054 1963
2055 1976
2056 1983
2057 1989
2058 1994
2059 1985
2060 1971
2061 1956
2062 1940
2063 1923
2064 1904
2065 1884
2066 1871
2067 1869
2068 1870
2069 1876
2070 1887
2071 1902
2072 1926
2073 1945
2074 1958
2075 1972
2076 1979
2077 1982
2078 1986
2079 1983
2080 1982
2081 1972
2082 1956
2083 1935
2084 1915
2085 1898
2086 1887
2087 1885
2088 1882
2089 1885
2090 1896
2091 1906
2092 1925
2093 1949
2094 1968
2095 1979
2096 1992
2097 1995
2098 1993
2099 1984
2100 1974
2101 1962
2102 1939
2103 1922
2104 1912
2105 1893
2106 1875
2107 1870
2108 1872
2109 1877
2110 1887
2111 1899
2112 1919
2113 1940
2114 1961
2115 1984
2116 1995
2117 1996
2118 1996
2119 1979
2120 1962
2121 1951
2122 1935
2123 1922
2124 1910
2125 1907
2126 1900
2127 1887
2128 1880
2129 1886
2130 1895
2131 1905
2132 1926
2133 1948
2134 1971
2135 1981
2136 1991
2137 1999
2138 2002
2139 1999
2140 1986
2141 1965
2142 1947
2143 1931
2144 1918
2145 1903
2146 1889
2147 1882
2148 1883
2149 1889
2150 1899
2151 1913
2152 1933
2153 1951
2154 1960
2155 1973
2156 1987
2157 1996
2158 1999
2159 1996
2160 1987
2161 1974
2162 1953
2163 1937
2164 1918
2165 1900
2166 1889
2167 1887
2168 1881
2169 1883
2170 1894
2171 1914
2172 1931
2173 1950
2174 1969
2175 1984
2176 1994
2177 1998
2178 1997
2179 1995
2180 1985
2181 1965
2182 1941
2183 1922
2184 1907
2185 1896
2186 1888
2187 1885
2188 1875
2189 1880
2190 1898
2191 1915
2192 1937
2193 1959
2194 1972
2195 1987
2196 1997
2197 1993
2198 1987
2199 1978
2200 1971
2201 1969
2202 1956
2203 1932
2204 1914
2205 1901
2206 1895
2207 1889
2208 1882
2209 1884
2210 1895
2211 1908
2212 1931
2213 1951
2214 1966
2215 1979
2216 1992
2217 1998
2218 2001
2219 1995
2220 1978
2221 1964
2222 1945
2223 1925
2224 1909
2225 1900
2226 1889
2227 1879
2228 1880
2229 1884
2230 1896
2231 1910
2232 1934
2233 1954
2234 1974
2235 1987
2236 1995
2237 2001
2238 1997
2239 1990
2240 1978
2241 1966
2242 1949
2243 1933
2244 1915
2245 1899
2246 1882
2247 1878
2248 1881
2249 1886
2250 1899
2251 1919
2252 1937
2253 1951
2254 1969
2255 1986
2256 1988
2257 1988
2258 1992
2259 1987
2260 1975
2261 1966
2262 1946
2263 1911
2264 1888
2265 1875
2266 1872
2267 1880
2268 1892
2269 1898
2270 1907
2271 1920
2272 1940
2273 1953
2274 1966
2275 1979
2276 1990
2277 1999
2278 2004
2279 1998
2280 1984
2281 1972
2282 1951
2283 1931
2284 1912
2285 1900
2286 1888
2287 1876
2288 1870
2289 1874
2290 1889
2291 1909
2292 1927
2293 1949
2294 1971
2295 1983
2296 1992
2297 1995
2298 1998
2299 1987
2300 1979
2301 1963
2302 1942
2303 1921
2304 1906
2305 1893
2306 1892
2307 1889
2308 1880
2309 1865
2310 1870
2311 1883
2312 1910
2313 1940
2314 1970
2315 1992
2316 2009
2317 1999
2318 1977
2319 1966
2320 1965
2321 1963
2322 1964
2323 1952
2324 1928
2325 1906
2326 1892
2327 1884
2328 1882
2329 1884
2330 1892
2331 1908
2332 1929
2333 1949
2334 1965
2335 1980
2336 1993
2337 2001
2338 2000
2339 1994
2340 1983
2341 1964
2342 1939
2343 1924
2344 1910
2345 1899
2346 1889
2347 1882
2348 1886
2349 1891
2350 1898
2351 1908
2352 1923
2353 1941
2354 1960
2355 1980
2356 1991
2357 1993
2358 1991
2359 1985
2360 1976
2361 1962
2362 1937
2363 1918
2364 1906
2365 1890
2366 1878
2367 1874
2368 1875
2369 1884
2370 1898
2371 1909
2372 1923
2373 1938
2374 1956
2375 1974
2376 1987
2377 1993
2378 1997
2379 1989
2380 1978
2381 1963
2382 1939
2383 1909
2384 1884
2385 1875
2386 1875
2387 1883
2388 1888
2389 1894
2390 1898
2391 1907
2392 1927
2393 1952
2394 1972
2395 1984
2396 1997
2397 2005
2398 2005
2399 1994
2400 1983
2401 1970
2402 1952
2403 1934
2404 1910
2405 1892
2406 1883
2407 1887
2408 1884
2409 1886
2410 1902
2411 1920
2412 1939
2413 1961
2414 1981
2415 2002
2416 2015
2417 2023
2418 2018
2419 2010
2420 2000
2421 1980
2422 1954
2423 1936
2424 1920
2425 1912
2426 1903
2427 1897
2428 1897
2429 1909
2430 1919
2431 1925
2432 1942
2433 1963
2434 1985
2435 2003
2436 2020
2437 2027
2438 2031
2439 2028
2440 2022
2441 2005
2442 1982
2443 1964
2444 1948
2445 1928
2446 1913
2447 1907
2448 1903
2449 1909
2450 1917
2451 1927
2452 1944
2453 1960
2454 1974
2455 1987
2456 1995
2457 2003
2458 2006
2459 2003
2460 1990
2461 1971
2462 1949
2463 1937
2464 1928
2465 1913
2466 1901
2467 1894
2468 1881
2469 1885
2470 1898
2471 1917
2472 1938
2473 1958
2474 1970
2475 1984
2476 1995
2477 2000
2478 1998
2479 1990
2480 1969
2481 1940
2482 1915
2483 1912
2484 1911
2485 1907
2486 1899
2487 1886
2488 1877
2489 1880
2490 1895
2491 1913
2492 1932
2493 1952
2494 1975
2495 1986
2496 1995
2497 1996
2498 2002
2499 2000
2500 1970
2501 1943
2502 1932
2503 1926
2504 1925
2505 1920
2506 1901
2507 1886
2508 1881
2509 1881
2510 1888
2511 1910
2512 1940
2513 1961
2514 1976
2515 1988
2516 2001
2517 2004
2518 1999
2519 1990
2520 1982
2521 1984
2522 1972
2523 1964
2524 1955
2525 1945
2526 1938
2527 1941
2528 1961
2529 1979
2530 2004
2531 2038
2532 2072
2533 2108
2534 2145
2535 2180
2536 2209
2537 2232
2538 2254
2539 2274
2540 2292
2541 2302
2542 2305
2543 2302
2544 2300
2545 2291
2546 2260
2547 2233
2548 2218
2549 2210
2550 2206
2551 2214
2552 2228
2553 2237
2554 2235
2555 2229
2556 2222
2557 2213
2558 2197
2559 2163
2560 2114
2561 2060
2562 2012
2563 1969
2564 1926
2565 1894
2566 1876
2567 1869
2568 1862
2569 1861
2570 1863
2571 1878
2572 1897
2573 1914
2574 1939
2575 1965
2576 1987
2577 1999
2578 2006
2579 2000
2580 1990
2581 1977
2582 1952
2583 1935
2584 1926
2585 1912
2586 1904
2587 1904
2588 1900
2589 1902
2590 1912
2591 1932
2592 1957
2593 1978
2594 1997
2595 2010
2596 2016
2597 2021
2598 2026
2599 2023
2600 2014
2601 2002
2602 1977
2603 1955
2604 1940
2605 1924
2606 1908
2607 1902
2608 1895
2609 1899
2610 1905
2611 1922
2612 1953
2613 1981
2614 2000
2615 2015
2616 2024
2617 2026
2618 2024
2619 2019
2620 2004
2621 1992
2622 1975
2623 1955
2624 1931
2625 1916
2626 1909
2627 1904
2628 1905
2629 1911
2630 1924
2631 1940
2632 1961
2633 1982
2634 2001
2635 2016
2636 2029
2637 2033
2638 2034
2639 2024
2640 2012
2641 1997
2642 1980
2643 1960
2644 1941
2645 1926
2646 1914
2647 1909
2648 1913
2649 1925
2650 1947
2651 1965
2652 1992
2653 2019
2654 2038
2655 2048
2656 2059
2657 2068
2658 2068
2659 2061
2660 2052
2661 2036
2662 2022
2663 2006
2664 1984
2665 1969
2666 1965
2667 1965
2668 1963
2669 1959
2670 1961
2671 1970
2672 1999
2673 2026
2674 2052
2675 2075
2676 2082
2677 2083
2678 2087
2679 2082
2680 2075
2681 2062
2682 2039
2683 2023
2684 2007
2685 1988
2686 1975
2687 1978
2688 1986
2689 1987
2690 1992
2691 2008
2692 2030
2693 2047
2694 2062
2695 2077
2696 2085
2697 2088
2698 2089
2699 2090
2700 2077
2701 2066
2702 2050
2703 2030
2704 2013
2705 2001
2706 1988
2707 1971
2708 1967
2709 1980
2710 2000
2711 2016
2712 2041
2713 2064
2714 2077
2715 2092
2716 2102
2717 2108
2718 2109
2719 2104
2720 2091
2721 2077
2722 2058
2723 2047
2724 2036
2725 2020
2726 2000
2727 1993
2728 1996
2729 2003
2730 2014
2731 2030
2732 2057
2733 2079
2734 2094
2735 2104
2736 2108
2737 2119
2738 2122
2739 2120
2740 2109
2741 2096
2742 2073
2743 2053
2744 2044
2745 2037
2746 2024
2747 2012
2748 2005
2749 2008
2750 2028
2751 2050
2752 2074
2753 2091
2754 2106
2755 2118
2756 2128
2757 2135
2758 2134
2759 2130
2760 2118
2761 2101
2762 2080
2763 2060
2764 2044
2765 2039
2766 2031
2767 2024
2768 2026
2769 2033
2770 2041
2771 2053
2772 2066
2773 2080
2774 2098
2775 2121
2776 2142
2777 2144
2778 2144
2779 2134
2780 2116
2781 2105
2782 2088
2783 2067
2784 2041
2785 2018
2786 2007
2787 2005
2788 2008
2789 2022
2790 2034
2791 2050
2792 2060
2793 2068
2794 2079
2795 2093
2796 2099
2797 2102
2798 2107
2799 2096
2800 2079
2801 2072
2802 2054
2803 2040
2804 2023
2805 2004
2806 1992
2807 1987
2808 1986
2809 1992
2810 2004
2811 2020
2812 2033
2813 2052
2814 2066
2815 2074
2816 2088
2817 2096
2818 2099
2819 2091
2820 2074
2821 2056
2822 2033
2823 2021
2824 2004
2825 1989
2826 1979
2827 1973
2828 1973
2829 1977
2830 1989
2831 2002
2832 2025
2833 2050
2834 2066
2835 2075
2836 2086
2837 2088
2838 2091
2839 2080
2840 2063
2841 2054
2842 2039
2843 2023
2844 2007
2845 1992
2846 1971
2847 1963
2848 1956
2849 1956
2850 1972
2851 1993
2852 2025
2853 2048
2854 2065
2855 2081
2856 2092
2857 2096
2858 2096
2859 2088
2860 2072
2861 2058
2862 2036
2863 2019
2864 2006
2865 1986
2866 1977
2867 1978
2868 1979
2869 1977
2870 1981
2871 1993
2872 2010
2873 2032
2874 2063
2875 2082
2876 2096
2877 2103
2878 2102
2879 2095
2880 2079
2881 2064
2882 2046
2883 2029
2884 2013
2885 1996
2886 1979
2887 1967
2888 1959
2889 1962
2890 1980
2891 2008
2892 2031
2893 2046
2894 2056
2895 2073
2896 2086
2897 2093
2898 2094
2899 2085
2900 2067
2901 2053
2902 2035
2903 2026
2904 2007
2905 1991
2906 1983
2907 1980
2908 1975
2909 1982
2910 1992
2911 2009
2912 2025
2913 2043
2914 2059
2915 2076
2916 2089
2917 2096
2918 2099
2919 2096
2920 2079
2921 2059
2922 2045
2923 2029
2924 2007
2925 1988
2926 1979
2927 1975
2928 1972
2929 1974
2930 1990
2931 2006
2932 2028
2933 2052
2934 2068
2935 2074
2936 2084
2937 2092
2938 2096
2939 2095
2940 2083
2941 2066
2942 2047
2943 2031
2944 2017
2945 2006
2946 1993
2947 1987
2948 1983
2949 1992
2950 2007
2951 2017
2952 2034
2953 2055
2954 2078
2955 2095
2956 2103
2957 2097
2958 2093
2959 2087
2960 2078
2961 2064
2962 2042
2963 2026
2964 2012
2965 2005
2966 2000
2967 1995
2968 1991
2969 1995
2970 2008
2971 2023
2972 2039
2973 2053
2974 2072
2975 2085
2976 2098
2977 2108
2978 2117
2979 2110
2980 2093
2981 2074
2982 2053
2983 2032
2984 2017
2985 2005
2986 1994
2987 1990
2988 1994
2989 1993
2990 2002
2991 2013
2992 2031
2993 2054
2994 2078
2995 2091
2996 2104
2997 2111
2998 2098
2999 2081
3000 2076
3001 2069
3002 2062
3003 2050
3004 2031
3005 2010
3006 1995
3007 1992
3008 1992
3009 1993
3010 2000
3011 2015
3012 2036
3013 2056
3014 2075
3015 2086
3016 2098
3017 2105
3018 2102
3019 2093
3020 2084
3021 2070
3022 2054
3023 2037
3024 2020
3025 2005
3026 1989
3027 1979
3028 1976
3029 1984
3030 1996
3031 2013
3032 2035
3033 2051
3034 2073
3035 2092
3036 2101
3037 2100
3038 2095
3039 2092
3040 2079
3041 2071
3042 2062
3043 2043
3044 2027
3045 2017
3046 2007
3047 2001
3048 1997
3049 1996
3050 2008
3051 2022
3052 2035
3053 2052
3054 2072
3055 2092
3056 2101
3057 2099
3058 2104
3059 2103
3060 2095
3061 2080
3062 2056
3063 2039
3064 2023
3065 2005
3066 1993
3067 1992
3068 1994
3069 2003
3070 2010
3071 2016
3072 2034
3073 2054
3074 2076
3075 2090
3076 2100
3077 2104
3078 2106
3079 2107
3080 2095
3081 2075
3082 2053
3083 2036
3084 2022
3085 2015
3086 2003
3087 1995
3088 1993
3089 1993
3090 2001
3091 2014
3092 2028
3093 2045
3094 2069
3095 2090
3096 2097
3097 2096
3098 2096
3099 2096
3100 2089
3101 2073
3102 2058
3103 2042
3104 2032
3105 2020
3106 1999
3107 1986
3108 1987
3109 1996
3110 2008
3111 2023
3112 2042
3113 2062
3114 2079
3115 2095
3116 2107
3117 2115
3118 2114
3119 2106
3120 2093
3121 2079
3122 2058
3123 2030
3124 2013
3125 1998
3126 1990
3127 1992
3128 1993
3129 1996
3130 2008
3131 2023
3132 2040
3133 2058
3134 2078
3135 2094
3136 2103
3137 2115
3138 2119
3139 2117
3140 2107
3141 2093
3142 2075
3143 2055
3144 2032
3145 2012
3146 2003
3147 1999
3148 1999
3149 2006
3150 2021
3151 2039
3152 2057
3153 2070
3154 2087
3155 2105
3156 2124
3157 2130
3158 2128
3159 2125
3160 2112
3161 2104
3162 2087
3163 2069
3164 2050
3165 2037
3166 2025
3167 2017
3168 2017
3169 2024
3170 2035
3171 2046
3172 2070
3173 2089
3174 2101
3175 2113
3176 2132
3177 2147
3178 2148
3179 2135
3180 2129
3181 2119
3182 2105
3183 2087
3184 2065
3185 2038
3186 2026
3187 2018
3188 2017
3189 2019
3190 2023
3191 2033
3192 2053
3193 2073
3194 2089
3195 2104
3196 2116
3197 2125
3198 2127
3199 2117
3200 2105
3201 2093
3202 2071
3203 2049
3204 2035
3205 2020
3206 2008
3207 2001
3208 1998
3209 2008
3210 2017
3211 2026
3212 2038
3213 2063
3214 2086
3215 2101
3216 2113
3217 2119
3218 2116
3219 2108
3220 2097
3221 2084
3222 2062
3223 2034
3224 2011
3225 2001
3226 1998
3227 1992
3228 1992
3229 1998
3230 2011
3231 2028
3232 2042
3233 2061
3234 2077
3235 2081
3236 2088
3237 2092
3238 2090
3239 2089
3240 2090
3241 2094
3242 2080
3243 2056
3244 2034
3245 2017
3246 2007
3247 1995
3248 1989
3249 1994
3250 2004
3251 2013
3252 2038
3253 2059
3254 2076
3255 2092
3256 2110
3257 2119
3258 2117
3259 2110
3260 2100
3261 2088
3262 2074
3263 2065
3264 2051
3265 2044
3266 2041
3267 2045
3268 2055
3269 2077
3270 2104
3271 2131
3272 2166
3273 2200
3274 2234
3275 2269
3276 2299
3277 2324
3278 2348
3279 2366
3280 2377
3281 2388
3282 2395
3283 2401
3284 2401
3285 2394
3286 2383
3287 2366
3288 2351
3289 2333
3290 2324
3291 2328
3292 2340
3293 2354
3294 2362
3295 2351
3296 2338
3297 2325
3298 2300
3299 2260
3300 2210
3301 2160
3302 2118
3303 2071
3304 2027
3305 1995
3306 1979
3307 1971
3308 1960
3309 1958
3310 1965
3311 1975
3312 1997
3313 2024
3314 2050
3315 2075
3316 2091
3317 2103
3318 2110
3319 2110
3320 2100
3321 2089
3322 2075
3323 2053
3324 2036
3325 2025
3326 2015
3327 2005
3328 2000
3329 2005
3330 2016
3331 2031
3332 2046
3333 2062
3334 2086
3335 2102
3336 2113
3337 2116
3338 2114
3339 2110
3340 2100
3341 2086
3342 2063
3343 2044
3344 2020
3345 2006
3346 2007
3347 2007
3348 2007
3349 2009
3350 2022
3351 2038
3352 2052
3353 2063
3354 2073
3355 2094
3356 2114
3357 2124
3358 2125
3359 2121
3360 2110
3361 2091
3362 2072
3363 2056
3364 2032
3365 2018
3366 2005
3367 1994
3368 1993
3369 2001
3370 2016
3371 2033
3372 2053
3373 2068
3374 2079
3375 2099
3376 2112
3377 2120
3378 2125
3379 2121
3380 2104
3381 2092
3382 2074
3383 2053
3384 2034
3385 2020
3386 2009
3387 2006
3388 2007
3389 2014
3390 2020
3391 2030
3392 2052
3393 2075
3394 2096
3395 2108
3396 2118
3397 2128
3398 2135
3399 2129
3400 2111
3401 2094
3402 2072
3403 2054
3404 2035
3405 2020
3406 2009
3407 2004
3408 2005
3409 2011
3410 2022
3411 2032
3412 2049
3413 2064
3414 2071
3415 2093
3416 2118
3417 2130
3418 2137
3419 2136
3420 2121
3421 2101
3422 2071
3423 2047
3424 2038
3425 2033
3426 2022
3427 2015
3428 2015
3429 2026
3430 2038
3431 2048
3432 2065
3433 2086
3434 2105
3435 2117
3436 2122
3437 2128
3438 2130
3439 2129
3440 2128
3441 2119
3442 2094
3443 2073
3444 2053
3445 2036
3446 2021
3447 2016
3448 2015
3449 2022
3450 2032
3451 2053
3452 2075
3453 2100
3454 2119
3455 2132
3456 2142
3457 2153
3458 2151
3459 2141
3460 2128
3461 2120
3462 2106
3463 2088
3464 2075
3465 2059
3466 2050
3467 2044
3468 2042
3469 2049
3470 2060
3471 2073
3472 2093
3473 2114
3474 2128
3475 2136
3476 2150
3477 2164
3478 2163
3479 2167
3480 2158
3481 2138
3482 2117
3483 2098
3484 2078
3485 2070
3486 2062
3487 2060
3488 2058
3489 2063
3490 2075
3491 2090
3492 2111
3493 2128
3494 2147
3495 2161
3496 2173
3497 2182
3498 2182
3499 2176
3500 2165
3501 2147
3502 2124
3503 2104
3504 2088
3505 2075
3506 2064
3507 2053
3508 2053
3509 2059
3510 2071
3511 2087
3512 2106
3513 2122
3514 2138
3515 2154
3516 2166
3517 2172
3518 2169
3519 2166
3520 2152
3521 2135
3522 2116
3523 2099
3524 2076
3525 2059
3526 2054
3527 2051
3528 2048
3529 2049
3530 2058
3531 2068
3532 2081
3533 2100
3534 2115
3535 2126
3536 2138
3537 2146
3538 2141
3539 2139
3540 2131
3541 2116
3542 2095
3543 2076
3544 2057
3545 2041
3546 2030
3547 2020
3548 2002
3549 1996
3550 2018
3551 2044
3552 2066
3553 2089
3554 2104
3555 2107
3556 2117
3557 2129
3558 2138
3559 2132
3560 2118
3561 2101
3562 2077
3563 2057
3564 2039
3565 2028
3566 2023
3567 2017
3568 2011
3569 2016
3570 2026
3571 2036
3572 2050
3573 2070
3574 2102
3575 2122
3576 2123
3577 2124
3578 2121
3579 2118
3580 2110
3581 2097
3582 2075
3583 2047
3584 2021
3585 2009
3586 2004
3587 2003
3588 2003
3589 2008
3590 2020
3591 2035
3592 2055
3593 2075
3594 2093
3595 2109
3596 2122
3597 2127
3598 2128
3599 2123
3600 2109
3601 2095
3602 2072
3603 2051
3604 2035
3605 2023
3606 2011
3607 2006
3608 2000
3609 2004
3610 2017
3611 2034
3612 2051
3613 2066
3614 2082
3615 2100
3616 2120
3617 2129
3618 2130
3619 2117
3620 2104
3621 2091
3622 2073
3623 2059
3624 2042
3625 2029
3626 2025
3627 2018
3628 2010
3629 2006
3630 2013
3631 2029
3632 2051
3633 2072
3634 2090
3635 2105
3636 2122
3637 2130
3638 2129
3639 2116
3640 2108
3641 2095
3642 2075
3643 2060
3644 2043
3645 2028
3646 2018
3647 2013
3648 2011
3649 2013
3650 2013
3651 2022
3652 2046
3653 2067
3654 2086
3655 2104
3656 2120
3657 2131
3658 2134
3659 2131
3660 2118
3661 2105
3662 2082
3663 2059
3664 2044
3665 2030
3666 2020
3667 2012
3668 2006
3669 2008
3670 2026
3671 2044
3672 2060
3673 2079
3674 2098
3675 2112
3676 2122
3677 2129
3678 2130
3679 2118
3680 2109
3681 2098
3682 2083
3683 2070
3684 2052
3685 2036
3686 2025
3687 2016
3688 2009
3689 2016
3690 2027
3691 2038
3692 2050
3693 2073
3694 2091
3695 2108
3696 2120
3697 2130
3698 2138
3699 2135
3700 2124
3701 2109
3702 2086
3703 2064
3704 2050
3705 2043
3706 2034
3707 2025
3708 2020
3709 2020
3710 2029
3711 2042
3712 2060
3713 2084
3714 2107
3715 2119
3716 2123
3717 2132
3718 2136
3719 2130
3720 2118
3721 2101
3722 2081
3723 2061
3724 2044
3725 2034
3726 2028
3727 2019
3728 2018
3729 2027
3730 2042
3731 2053
3732 2066
3733 2082
3734 2098
3735 2113
3736 2130
3737 2141
3738 2140
3739 2133
3740 2124
3741 2109
3742 2089
3743 2071
3744 2058
3745 2044
3746 2027
3747 2015
3748 2014
3749 2010
3750 2018
3751 2035
3752 2056
3753 2083
3754 2108
3755 2121
3756 2133
3757 2137
3758 2137
3759 2127
3760 2115
3761 2103
3762 2084
3763 2064
3764 2054
3765 2041
3766 2028
3767 2021
3768 2017
3769 2018
3770 2028
3771 2046
3772 2066
3773 2083
3774 2099
3775 2108
3776 2122
3777 2130
3778 2127
3779 2124
3780 2114
3781 2098
3782 2080
3783 2063
3784 2047
3785 2031
3786 2021
3787 2016
3788 2015
3789 2018
3790 2027
3791 2038
3792 2059
3793 2081
3794 2102
3795 2116
3796 2131
3797 2136
3798 2134
3799 2129
3800 2115
3801 2102
3802 2084
3803 2064
3804 2050
3805 2034
3806 2019
3807 2013
3808 2013
3809 2021
3810 2035
3811 2048
3812 2072
3813 2085
3814 2094
3815 2108
3816 2126
3817 2149
3818 2157
3819 2149
3820 2135
3821 2110
3822 2087
3823 2071
3824 2060
3825 2054
3826 2049
3827 2050
3828 2053
3829 2060
3830 2066
3831 2068
3832 2085
3833 2102
3834 2113
3835 2136
3836 2153
3837 2162
3838 2170
3839 2162
3840 2154
3841 2145
3842 2129
3843 2117
3844 2097
3845 2079
3846 2067
3847 2058
3848 2053
3849 2059
3850 2073
3851 2086
3852 2104
3853 2122
3854 2139
3855 2152
3856 2159
3857 2164
3858 2166
3859 2164
3860 2155
3861 2143
3862 2121
3863 2102
3864 2085
3865 2070
3866 2053
3867 2045
3868 2042
3869 2046
3870 2057
3871 2072
3872 2089
3873 2110
3874 2129
3875 2142
3876 2153
3877 2156
3878 2155
3879 2147
3880 2133
3881 2118
3882 2100
3883 2081
3884 2061
3885 2042
3886 2032
3887 2023
3888 2019
3889 2023
3890 2035
3891 2047
3892 2066
3893 2088
3894 2106
3895 2120
3896 2126
3897 2129
3898 2129
3899 2122
3900 2108
3901 2091
3902 2062
3903 2037
3904 2026
3905 2016
3906 2011
3907 2012
3908 2016
3909 2017
3910 2023
3911 2036
3912 2051
3913 2069
3914 2085
3915 2096
3916 2109
3917 2118
3918 2117
3919 2119
3920 2118
3921 2106
3922 2090
3923 2073
3924 2045
3925 2023
3926 2008
3927 2001
3928 2004
3929 2015
3930 2026
3931 2044
3932 2065
3933 2086
3934 2097
3935 2110
3936 2121
3937 2125
3938 2122
3939 2118
3940 2108
3941 2094
3942 2078
3943 2060
3944 2043
3945 2029
3946 2018
3947 2011
3948 2002
3949 2005
3950 2022
3951 2049
3952 2081
3953 2111
3954 2144
3955 2167
3956 2185
3957 2207
3958 2222
3959 2237
3960 2247
3961 2256
3962 2263
3963 2268
3964 2272
3965 2280
3966 2287
3967 2301
3968 2324
3969 2356
3970 2389
3971 2423
3972 2453
3973 2476
3974 2496
3975 2497
3976 2498
3977 2499
3978 2482
3979 2460
3980 2427
3981 2400
3982 2366
3983 2319
3984 2272
3985 2229
3986 2186
3987 2141
3988 2102
3989 2064
3990 2041
3991 2032
3992 2029
3993 2037
3994 2050
3995 2061
3996 2064
3997 2066
3998 2073
3999 2083
4000 2084
4001 2081
4002 2068
4003 2056
4004 2044
4005 2029
4006 2024
4007 2022
4008 2016
4009 2007
4010 2019
4011 2048
4012 2070
4013 2089
4014 2105
4015 2109
4016 2114
4017 2120
4018 2126
4019 2129
4020 2128
4021 2113
4022 2091
4023 2065
4024 2037
4025 2018
4026 2010
4027 2005
4028 2008
4029 2020
4030 2030
4031 2045
4032 2059
4033 2077
4034 2092
4035 2108
4036 2121
4037 2124
4038 2122
4039 2116
4040 2106
4041 2094
4042 2078
4043 2064
4044 2045
4045 2024
4046 2012
4047 2006
4048 2009
4049 2014
4050 2024
4051 2033
4052 2044
4053 2067
4054 2091
4055 2107
4056 2120
4057 2127
4058 2128
4059 2127
4060 2118
4061 2105
4062 2084
4063 2068
4064 2047
4065 2032
4066 2017
4067 2005
4068 2005
4069 2007
4070 2022
4071 2042
4072 2063
4073 2079
4074 2098
4075 2113
4076 2127
4077 2131
4078 2132
4079 2129
4080 2118
4081 2104
4082 2087
4083 2067
4084 2043
4085 2029
4086 2020
4087 2015
4088 2016
4089 2018
4090 2029
4091 2040
4092 2056
4093 2071
4094 2097
4095 2120
4096 2135
4097 2136
4098 2134
4099 2136
4100 2120
4101 2105
4102 2089
4103 2068
4104 2050
4105 2038
4106 2026
4107 2020
4108 2023
4109 2028
4110 2040
4111 2057
4112 2074
4113 2090
4114 2113
4115 2123
4116 2132
4117 2138
4118 2143
4119 2136
4120 2128
4121 2112
4122 2094
4123 2069
4124 2057
4125 2043
4126 2034
4127 2029
4128 2033
4129 2038
4130 2052
4131 2071
4132 2091
4133 2107
4134 2118
4135 2131
4136 2142
4137 2151
4138 2159
4139 2161
4140 2151
4141 2130
4142 2109
4143 2086
4144 2060
4145 2046
4146 2041
4147 2047
4148 2054
4149 2064
4150 2071
4151 2083
4152 2100
4153 2116
4154 2132
4155 2146
4156 2161
4157 2171
4158 2176
4159 2173
4160 2162
4161 2150
4162 2132
4163 2108
4164 2089
4165 2075
4166 2069
4167 2063
4168 2060
4169 2063
4170 2074
4171 2080
4172 2096
4173 2120
4174 2145
4175 2168
4176 2183
4177 2188
4178 2196
4179 2191
4180 2179
4181 2159
4182 2138
4183 2113
4184 2096
4185 2079
4186 2063
4187 2058
4188 2065
4189 2067
4190 2083
4191 2102
4192 2119
4193 2132
4194 2141
4195 2153
4196 2174
4197 2190
4198 2191
4199 2184
4200 2174
4201 2161
4202 2145
4203 2126
4204 2105
4205 2089
4206 2076
4207 2068
4208 2061
4209 2066
4210 2076
4211 2087
4212 2098
4213 2112
4214 2130
4215 2144
4216 2156
4217 2155
4218 2151
4219 2142
4220 2140
4221 2128
4222 2105
4223 2090
4224 2077
4225 2063
4226 2048
4227 2038
4228 2037
4229 2045
4230 2055
4231 2061
4232 2074
4233 2093
4234 2113
4235 2127
4236 2133
4237 2139
4238 2144
4239 2138
4240 2122
4241 2109
4242 2092
4243 2072
4244 2050
4245 2033
4246 2020
4247 2016
4248 2014
4249 2011
4250 2016
4251 2028
4252 2048
4253 2076
4254 2098
4255 2110
4256 2124
4257 2137
4258 2140
4259 2136
4260 2122
4261 2106
4262 2083
4263 2060
4264 2044
4265 2033
4266 2024
4267 2016
4268 2015
4269 2018
4270 2029
4271 2039
4272 2056
4273 2073
4274 2091
4275 2109
4276 2121
4277 2127
4278 2127
4279 2122
4280 2114
4281 2102
4282 2083
4283 2062
4284 2046
4285 2025
4286 2014
4287 2013
4288 2015
4289 2018
4290 2029
4291 2045
4292 2065
4293 2079
4294 2092
4295 2105
4296 2108
4297 2118
4298 2124
4299 2124
4300 2113
4301 2102
4302 2088
4303 2068
4304 2050
4305 2034
4306 2015
4307 2004
4308 2004
4309 2009
4310 2028
4311 2040
4312 2049
4313 2067
4314 2092
4315 2096
4316 2110
4317 2131
4318 2137
4319 2129
4320 2120
4321 2112
4322 2095
4323 2076
4324 2056
4325 2036
4326 2018
4327 2007
4328 2007
4329 2016
4330 2028
4331 2043
4332 2062
4333 2079
4334 2095
4335 2114
4336 2125
4337 2130
4338 2127
4339 2121
4340 2110
4341 2095
4342 2081
4343 2066
4344 2052
4345 2034
4346 2020
4347 2012
4348 2007
4349 2007
4350 2016
4351 2038
4352 2062
4353 2085
4354 2104
4355 2115
4356 2123
4357 2125
4358 2120
4359 2114
4360 2104
4361 2099
4362 2086
4363 2069
4364 2055
4365 2039
4366 2028
4367 2018
4368 2012
4369 2012
4370 2023
4371 2037
4372 2057
4373 2077
4374 2094
4375 2111
4376 2126
4377 2128
4378 2126
4379 2123
4380 2115
4381 2105
4382 2088
4383 2066
4384 2039
4385 2016
4386 2011
4387 2009
4388 2014
4389 2015
4390 2020
4391 2039
4392 2062
4393 2087
4394 2108
4395 2121
4396 2132
4397 2136
4398 2137
4399 2134
4400 2119
4401 2097
4402 2081
4403 2067
4404 2045
4405 2039
4406 2037
4407 2035
4408 2029
4409 2031
4410 2041
4411 2052
4412 2068
4413 2085
4414 2101
4415 2109
4416 2113
4417 2113
4418 2120
4419 2125
4420 2118
4421 2113
4422 2096
4423 2075
4424 2056
4425 2037
4426 2025
4427 2017
4428 2019
4429 2029
4430 2036
4431 2035
4432 2047
4433 2068
4434 2092
4435 2116
4436 2135
4437 2144
4438 2142
4439 2131
4440 2122
4441 2109
4442 2089
4443 2066
4444 2043
4445 2027
4446 2018
4447 2012
4448 2014
4449 2014
4450 2019
4451 2034
4452 2060
4453 2083
4454 2101
4455 2116
4456 2125
4457 2130
4458 2132
4459 2132
4460 2121
4461 2105
4462 2085
4463 2066
4464 2043
4465 2029
4466 2019
4467 2014
4468 2011
4469 2014
4470 2026
4471 2036
4472 2055
4473 2076
4474 2095
4475 2112
4476 2122
4477 2131
4478 2127
4479 2120
4480 2107
4481 2098
4482 2081
4483 2062
4484 2045
4485 2032
4486 2017
4487 2013
4488 2006
4489 2009
4490 2020
4491 2032
4492 2055
4493 2080
4494 2106
4495 2125
4496 2134
4497 2136
4498 2135
4499 2133
4500 2119
4501 2102
4502 2080
4503 2056
4504 2037
4505 2028
4506 2014
4507 2001
4508 2005
4509 2011
4510 2026
4511 2042
4512 2059
4513 2079
4514 2097
4515 2111
4516 2127
4517 2135
4518 2133
4519 2120
4520 2106
4521 2100
4522 2085
4523 2068
4524 2049
4525 2029
4526 2017
4527 2013
4528 2013
4529 2019
4530 2028
4531 2039
4532 2054
4533 2074
4534 2095
4535 2112
4536 2122
4537 2120
4538 2124
4539 2124
4540 2113
4541 2100
4542 2085
4543 2068
4544 2050
4545 2035
4546 2024
4547 2011
4548 2005
4549 2004
4550 2007
4551 2024
4552 2051
4553 2079
4554 2100
4555 2117
4556 2127
4557 2134
4558 2135
4559 2126
4560 2108
4561 2096
4562 2079
4563 2062
4564 2045
4565 2030
4566 2018
4567 2009
4568 2009
4569 2014
4570 2023
4571 2036
4572 2052
4573 2066
4574 2083
4575 2104
4576 2124
4577 2131
4578 2128
4579 2114
4580 2100
4581 2086
4582 2071
4583 2065
4584 2051
4585 2038
4586 2028
4587 2015
4588 2012
4589 2017
4590 2026
4591 2032
4592 2051
4593 2073
4594 2093
4595 2110
4596 2123
4597 2127
4598 2129
4599 2126
4600 2114
4601 2099
4602 2081
4603 2062
4604 2044
4605 2033
4606 2022
4607 2016
4608 2009
4609 2005
4610 2009
4611 2029
4612 2049
4613 2069
4614 2091
4615 2109
4616 2121
4617 2128
4618 2123
4619 2115
4620 2107
4621 2092
4622 2082
4623 2069
4624 2053
4625 2038
4626 2023
4627 2016
4628 2011
4629 2010
4630 2017
4631 2035
4632 2058
4633 2079
4634 2097
4635 2112
4636 2124
4637 2131
4638 2132
4639 2124
4640 2113
4641 2101
4642 2086
4643 2069
4644 2051
4645 2039
4646 2027
4647 2022
4648 2023
4649 2026
4650 2038
4651 2053
4652 2077
4653 2099
4654 2111
4655 2118
4656 2131
4657 2139
4658 2144
4659 2142
4660 2129
4661 2107
4662 2090
4663 2078
4664 2071
4665 2059
4666 2048
4667 2042
4668 2041
4669 2043
4670 2052
4671 2068
4672 2088
4673 2105
4674 2117
4675 2132
4676 2148
4677 2156
4678 2154
4679 2147
4680 2135
4681 2119
4682 2100
4683 2076
4684 2064
4685 2051
4686 2032
4687 2016
4688 2013
4689 2014
4690 2022
4691 2032
4692 2047
4693 2076
4694 2101
4695 2118
4696 2128
4697 2128
4698 2127
4699 2130
4700 2118
4701 2097
4702 2083
4703 2066
4704 2048
4705 2030
4706 2012
4707 2009
4708 2010
4709 2011
4710 2020
4711 2037
4712 2054
4713 2074
4714 2090
4715 2101
4716 2109
4717 2117
4718 2112
4719 2108
4720 2104
4721 2096
4722 2081
4723 2058
4724 2036
4725 2024
4726 2013
4727 2004
4728 2000
4729 2000
4730 2011
4731 2027
4732 2038
4733 2054
4734 2075
4735 2092
4736 2105
4737 2114
4738 2119
4739 2114
4740 2102
4741 2077
4742 2055
4743 2043
4744 2029
4745 2017
4746 2007
4747 2002
4748 1998
4749 2002
4750 2015
4751 2024
4752 2035
4753 2054
4754 2082
4755 2100
4756 2115
4757 2121
4758 2122
4759 2121
4760 2115
4761 2110
4762 2102
4763 2090
4764 2083
4765 2080
4766 2085
4767 2093
4768 2107
4769 2130
4770 2156
4771 2187
4772 2230
4773 2274
4774 2313
4775 2350
4776 2388
4777 2421
4778 2448
4779 2470
4780 2485
4781 2485
4782 2476
4783 2464
4784 2442
4785 2415
4786 2393
4787 2369
4788 2340
4789 2332
4790 2337
4791 2329
4792 2318
4793 2312
4794 2312
4795 2304
4796 2284
4797 2252
4798 2212
4799 2176
4800 2132
4801 2086
4802 2045
4803 2011
4804 1990
4805 1978
4806 1973
4807 1972
4808 1966
4809 1971
4810 1993
4811 2017
4812 2043
4813 2075
4814 2101
4815 2115
4816 2120
4817 2126
4818 2131
4819 2126
4820 2114
4821 2100
4822 2079
4823 2061
4824 2047
4825 2033
4826 2022
4827 2007
4828 2000
4829 2006
4830 2012
4831 2025
4832 2044
4833 2067
4834 2089
4835 2104
4836 2115
4837 2122
4838 2122
4839 2116
4840 2104
4841 2083
4842 2064
4843 2057
4844 2043
4845 2022
4846 2007
4847 2004
4848 2002
4849 1993
4850 1993
4851 2011
4852 2037
4853 2065
4854 2092
4855 2108
4856 2120
4857 2127
4858 2129
4859 2127
4860 2116
4861 2104
4862 2088
4863 2064
4864 2044
4865 2019
4866 2007
4867 2006
4868 2004
4869 1997
4870 2005
4871 2019
4872 2040
4873 2065
4874 2090
4875 2109
4876 2125
4877 2129
4878 2123
4879 2118
4880 2108
4881 2092
4882 2080
4883 2066
4884 2046
4885 2033
4886 2018
4887 2008
4888 2005
4889 2012
4890 2022
4891 2037
4892 2058
4893 2076
4894 2095
4895 2106
4896 2111
4897 2120
4898 2119
4899 2114
4900 2104
4901 2098
4902 2093
4903 2073
4904 2047
4905 2029
4906 2011
4907 2001
4908 2004
4909 2010
4910 2017
4911 2036
4912 2059
4913 2081
4914 2099
4915 2115
4916 2131
4917 2138
4918 2138
4919 2134
4920 2125
4921 2109
4922 2087
4923 2068
4924 2051
4925 2036
4926 2027
4927 2016
4928 2009
4929 2014
4930 2029
4931 2047
4932 2071
4933 2090
4934 2110
4935 2119
4936 2126
4937 2130
4938 2132
4939 2133
4940 2126
4941 2110
4942 2096
4943 2085
4944 2067
4945 2052
4946 2036
4947 2025
4948 2024
4949 2025
4950 2034
4951 2050
4952 2073
4953 2096
4954 2115
4955 2130
4956 2140
4957 2147
4958 2152
4959 2152
4960 2140
4961 2119
4962 2094
4963 2082
4964 2071
4965 2064
4966 2053
4967 2041
4968 2040
4969 2046
4970 2057
4971 2068
4972 2085
4973 2102
4974 2123
4975 2137
4976 2152
4977 2161
4978 2168
4979 2170
4980 2157
4981 2143
4982 2128
4983 2106
4984 2085
4985 2065
4986 2055
4987 2047
4988 2043
4989 2044
4990 2066
4991 2085
4992 2106
4993 2126
4994 2139
4995 2150
4996 2161
4997 2170
4998 2176
4999 2177
5000 2168
5001 2155
5002 2133
5003 2108
5004 2088
5005 2070
5006 2062
5007 2061
5008 2064
5009 2066
5010 2078
5011 2091
5012 2109
5013 2131
5014 2148
5015 2154
5016 2162
5017 2174
5018 2171
5019 2166
5020 2156
5021 2141
5022 2123
5023 2100
5024 2082
5025 2067
5026 2044
5027 2034
5028 2039
5029 2033
5030 2044
5031 2065
5032 2082
5033 2100
5034 2113
5035 2118
5036 2127
5037 2136
5038 2143
5039 2146
5040 2137
5041 2122
5042 2102
5043 2077
5044 2056
5045 2040
5046 2029
5047 2021
5048 2015
5049 2014
5050 2022
5051 2038
5052 2057
5053 2077
5054 2094
5055 2108
5056 2116
5057 2122
5058 2122
5059 2120
5060 2106
5061 2095
5062 2083
5063 2062
5064 2040
5065 2021
5066 2009
5067 2001
5068 2002
5069 2005
5070 2017
5071 2034
5072 2053
5073 2074
5074 2089
5075 2100
5076 2110
5077 2117
5078 2119
5079 2116
5080 2105
5081 2091
5082 2078
5083 2058
5084 2038
5085 2022
5086 2006
5087 1992
5088 1981
5089 1988
5090 1999
5091 2023
5092 2053
5093 2075
5094 2092
5095 2111
5096 2121
5097 2115
5098 2112
5099 2105
5100 2094
5101 2085
5102 2069
5103 2050
5104 2036
5105 2019
5106 2007
5107 2001
5108 2004
5109 2007
5110 2014
5111 2020
5112 2032
5113 2054
5114 2076
5115 2097
5116 2115
5117 2124
5118 2122
5119 2117
5120 2104
5121 2089
5122 2072
5123 2052
5124 2035
5125 2012
5126 1999
5127 2000
5128 2000
5129 2006
5130 2018
5131 2034
5132 2052
5133 2068
5134 2086
5135 2100
5136 2110
5137 2117
5138 2119
5139 2115
5140 2105
5141 2091
5142 2071
5143 2049
5144 2032
5145 2020
5146 2006
5147 1995
5148 1993
5149 1993
5150 1997
5151 2008
5152 2028
5153 2058
5154 2088
5155 2106
5156 2119
5157 2126
5158 2129
5159 2118
5160 2099
5161 2083
5162 2073
5163 2059
5164 2038
5165 2023
5166 2010
5167 1999
5168 2002
5169 2008
5170 2020
5171 2031
5172 2048
5173 2070
5174 2087
5175 2100
5176 2108
5177 2108
5178 2112
5179 2112
5180 2106
5181 2098
5182 2077
5183 2053
5184 2037
5185 2019
5186 2007
5187 1999
5188 1999
5189 2005
5190 2012
5191 2022
5192 2040
5193 2064
5194 2086
5195 2097
5196 2100
5197 2109
5198 2111
5199 2110
5200 2103
5201 2092
5202 2073
5203 2057
5204 2041
5205 2029
5206 2015
5207 2003
5208 1993
5209 1991
5210 2005
5211 2020
5212 2039
5213 2062
5214 2081
5215 2099
5216 2114
5217 2120
5218 2119
5219 2112
5220 2105
5221 2094
5222 2077
5223 2061
5224 2045
5225 2025
5226 2011
5227 2007
5228 2006
5229 2004
5230 2018
5231 2036
5232 2054
5233 2069
5234 2086
5235 2095
5236 2095
5237 2099
5238 2105
5239 2109
5240 2109
5241 2101
5242 2082
5243 2060
5244 2038
5245 2023
5246 2001
5247 1987
5248 1988
5249 1995
5250 2018
5251 2035
5252 2048
5253 2065
5254 2085
5255 2100
5256 2107
5257 2116
5258 2116
5259 2111
5260 2103
5261 2094
5262 2072
5263 2052
5264 2036
5265 2022
5266 2009
5267 1995
5268 1997
5269 2005
5270 2016
5271 2026
5272 2041
5273 2064
5274 2083
5275 2097
5276 2110
5277 2123
5278 2122
5279 2115
5280 2104
5281 2092
5282 2075
5283 2053
5284 2030
5285 2010
5286 1992
5287 1976
5288 1978
5289 1991
5290 2007
5291 2024
5292 2042
5293 2053
5294 2076
5295 2091
5296 2103
5297 2120
5298 2123
5299 2115
5300 2103
5301 2084
5302 2064
5303 2044
5304 2023
5305 2013
5306 2003
5307 1994
5308 1984
5309 1986
5310 1998
5311 2013
5312 2033
5313 2056
5314 2076
5315 2088
5316 2103
5317 2112
5318 2114
5319 2114
5320 2107
5321 2092
5322 2076
5323 2055
5324 2032
5325 2014
5326 2001
5327 1992
5328 1987
5329 1995
5330 2007
5331 2015
5332 2026
5333 2045
5334 2069
5335 2084
5336 2106
5337 2119
5338 2121
5339 2112
5340 2095
5341 2085
5342 2069
5343 2042
5344 2017
5345 1997
5346 1984
5347 1981
5348 1982
5349 1987
5350 2002
5351 2016
5352 2026
5353 2048
5354 2071
5355 2088
5356 2102
5357 2111
5358 2114
5359 2110
5360 2098
5361 2081
5362 2061
5363 2038
5364 2022
5365 2008
5366 1997
5367 1995
5368 1996
5369 1997
5370 2006
5371 2016
5372 2031
5373 2045
5374 2062
5375 2078
5376 2096
5377 2109
5378 2108
5379 2105
5380 2095
5381 2083
5382 2064
5383 2045
5384 2028
5385 2014
5386 2005
5387 1993
5388 1986
5389 1982
5390 1990
5391 2010
5392 2031
5393 2057
5394 2083
5395 2096
5396 2103
5397 2106
5398 2106
5399 2104
5400 2093
5401 2077
5402 2056
5403 2035
5404 2023
5405 2016
5406 2001
5407 1989
5408 1988
5409 1994
5410 2005
5411 2015
5412 2029
5413 2041
5414 2056
5415 2074
5416 2095
5417 2111
5418 2114
5419 2104
5420 2096
5421 2085
5422 2071
5423 2050
5424 2028
5425 2011
5426 1994
5427 1985
5428 1988
5429 1995
5430 2007
5431 2015
5432 2031
5433 2054
5434 2072
5435 2087
5436 2103
5437 2107
5438 2099
5439 2098
5440 2092
5441 2083
5442 2065
5443 2041
5444 2023
5445 2007
5446 1986
5447 1980
5448 1986
5449 1990
5450 2002
5451 2021
5452 2040
5453 2057
5454 2076
5455 2091
5456 2103
5457 2110
5458 2112
5459 2108
5460 2096
5461 2082
5462 2063
5463 2041
5464 2021
5465 2004
5466 1991
5467 1986
5468 1984
5469 1988
5470 1996
5471 2007
5472 2018
5473 2039
5474 2057
5475 2076
5476 2085
5477 2098
5478 2106
5479 2104
5480 2096
5481 2081
5482 2065
5483 2042
5484 2021
5485 2006
5486 1993
5487 1985
5488 1982
5489 1987
5490 1999
5491 2012
5492 2027
5493 2045
5494 2066
5495 2087
5496 2096
5497 2099
5498 2105
5499 2100
5500 2092
5501 2083
5502 2069
5503 2049
5504 2030
5505 2012
5506 1992
5507 1977
5508 1979
5509 1985
5510 1990
5511 1997
5512 2019
5513 2042
5514 2066
5515 2080
5516 2096
5517 2096
5518 2096
5519 2104
5520 2098
5521 2083
5522 2066
5523 2046
5524 2026
5525 2002
5526 1992
5527 1991
5528 1990
5529 1992
5530 2000
5531 2013
5532 2034
5533 2058
5534 2073
5535 2082
5536 2094
5537 2100
5538 2105
5539 2100
5540 2097
5541 2093
5542 2082
5543 2057
5544 2034
5545 2021
5546 2004
5547 1999
5548 1998
5549 2001
5550 2008
5551 2021
5552 2037
5553 2057
5554 2077
5555 2097
5556 2114
5557 2119
5558 2122
5559 2120
5560 2107
5561 2091
5562 2073
5563 2055
5564 2038
5565 2022
5566 2007
5567 2003
5568 2006
5569 2010
5570 2020
5571 2032
5572 2052
5573 2073
5574 2092
5575 2105
5576 2119
5577 2130
5578 2132
5579 2125
5580 2111
5581 2090
5582 2063
5583 2042
5584 2028
5585 2017
5586 2004
5587 1999
5588 1994
5589 1987
5590 1998
5591 2016
5592 2025
5593 2047
5594 2065
5595 2081
5596 2098
5597 2112
5598 2111
5599 2096
5600 2079
5601 2069
5602 2061
5603 2054
5604 2033
5605 2017
5606 1999
5607 1993
5608 1992
5609 1994
5610 1997
5611 2008
5612 2027
5613 2050
5614 2072
5615 2084
5616 2090
5617 2094
5618 2095
5619 2089
5620 2081
5621 2073
5622 2053
5623 2028
5624 2005
5625 1993
5626 1984
5627 1978
5628 1976
5629 1975
5630 1982
5631 1995
5632 2018
5633 2039
5634 2058
5635 2075
5636 2086
5637 2094
5638 2098
5639 2097
5640 2082
5641 2066
5642 2049
5643 2031
5644 2014
5645 1996
5646 1980
5647 1969
5648 1964
5649 1968
5650 1987
5651 2001
5652 2020
5653 2043
5654 2061
5655 2076
5656 2087
5657 2094
5658 2099
5659 2098
5660 2092
5661 2086
5662 2076
5663 2065
5664 2056
5665 2049
5666 2045
5667 2051
5668 2060
5669 2076
5670 2102
5671 2139
5672 2182
5673 2225
5674 2266
5675 2306
5676 2334
5677 2361
5678 2390
5679 2416
5680 2437
5681 2453
5682 2451
5683 2440
5684 2420
5685 2395
5686 2371
5687 2346
5688 2324
5689 2314
5690 2317
5691 2315
5692 2318
5693 2311
5694 2297
5695 2284
5696 2258
5697 2234
5698 2208
5699 2176
5700 2136
5701 2094
5702 2045
5703 2003
5704 1967
5705 1944
5706 1936
5707 1938
5708 1943
5709 1952
5710 1964
5711 1979
5712 2003
5713 2025
5714 2043
5715 2068
5716 2091
5717 2107
5718 2113
5719 2105
5720 2090
5721 2074
5722 2055
5723 2040
5724 2021
5725 2007
5726 1998
5727 1991
5728 1988
5729 1992
5730 2000
5731 2013
5732 2029
5733 2045
5734 2062
5735 2080
5736 2094
5737 2097
5738 2095
5739 2096
5740 2089
5741 2072
5742 2056
5743 2034
5744 2016
5745 2001
5746 1988
5747 1982
5748 1981
5749 1983
